time,x,y,vx,vy,energy,angular_momentum
0,1,0,0,6.283185307179586,-19.739208802178716,6.283185307179586
0.001,0.9999802607911978,0.006283185307179587,-0.03947802795645686,6.2830612820729375,-19.73920880217864,6.283185307179586
0.002,0.9999210439440871,0.012566122564145875,-0.07895449733669727,6.282689211649741,-19.739208802178425,6.283185307179585
0.003,0.9998223517965245,0.01884856373047907,-0.11842784962604766,6.2820691106000535,-19.739208802178034,6.283185307179586
0.004,0.9996841882448351,0.025130260785345984,-0.1578965264329178,6.2812010034066565,-19.739208802177497,6.283185307179586
0.005,0.9995065587436587,0.031410965737292386,-0.19735896955033633,6.280084924344092,-19.739208802176822,6.283185307179586
0.006,0.9992894703057345,0.03769043063403417,-0.23681362101747905,6.278720917477307,-19.739208802175973,6.283185307179587
0.007,0.9990329315016238,0.043968407572247,-0.27625892318118755,6.277109036659914,-19.73920880217499,6.283185307179588
0.008,0.9987369524593721,0.050244648707354,-0.3156933187574755,6.27524934553206,-19.73920880217385,6.283185307179587
0.009000000000000001,0.9984015448641088,0.056518906263311124,-0.35511525089302065,6.273141917517923,-19.739208802172573,6.283185307179587
0.01,0.998026721957586,0.06279093254238985,-0.39452316322663933,6.2707868358228005,-19.739208802171127,6.283185307179587
0.011,0.9976124985376555,0.06906047993495673,-0.433915499950742,6.26818419342983,-19.73920880216954,6.283185307179586
0.012,0.9971588909576845,0.07532730092924951,-0.47329070587276684,6.265334093096315,-19.739208802167784,6.283185307179586
0.013000000000000001,0.9966659171259099,0.08159114812114936,-0.5126472264765886,6.262236647349666,-19.739208802165894,6.283185307179586
0.014,0.9961335965047313,0.08785177422394884,-0.5519835079839013,6.258891978482957,-19.73920880216384,6.283185307179586
0.015,0.9955619501099422,0.09410893207811527,-0.5912979974155713,6.255300218550094,-19.73920880216165,6.283185307179586
0.016,0.9949510005099003,0.10036237466104903,-0.6305891426529594,6.251461509360601,-19.7392088021593,6.283185307179586
0.017,0.9943007718246363,0.10661185509683647,-0.6698553924992081,6.2473760024740175,-19.739208802156803,6.283185307179586
0.018000000000000002,0.9936112897249018,0.11285712666599707,-0.709095196740493,6.243043859193915,-19.739208802154153,6.283185307179585
0.019,0.9928825814311553,0.1190979428152243,-0.7483070062072356,6.238465250561524,-19.73920880215135,6.283185307179585
0.02,0.9921146757124873,0.12533405716712012,-0.7874892728352737,6.233640357348979,-19.739208802148397,6.283185307179586
0.021,0.9913076028854848,0.13156522352992228,-0.8266404497269898,6.228569370052179,-19.73920880214529,6.283185307179587
0.022,0.9904613948130334,0.1377911959072245,-0.865758991212392,6.223252488883264,-19.73920880214203,6.283185307179587
0.023,0.98957608490306,0.1440117285076888,-0.9048433529101468,6.217689923762706,-19.739208802138613,6.283185307179588
0.024,0.9886517081072131,0.1502265757547499,-0.9438919917885615,6.211881894311021,-19.739208802135064,6.283185307179588
0.025,0.9876883009194829,0.15643549229631085,-0.9829033662265123,6.205828629840091,-19.73920880213136,6.283185307179587
0.026000000000000002,0.9866859013747601,0.1626382330144301,-1.0218759360743177,6.199530369344111,-19.739208802127507,6.283185307179587
0.027,0.9856445490473342,0.16883455303499909,-1.060808162714553,6.192987361490148,-19.739208802123503,6.283185307179587
0.028,0.9845642850493309,0.1750242077374104,-1.0996985091228042,6.1861998646083185,-19.73920880211935,6.283185307179586
0.029,0.9834451520290886,0.18120695276421572,-1.1385454399283603,6.1791681466815875,-19.739208802115048,6.283185307179587
0.03,0.9822871941694742,0.18738254403077356,-1.1773474214748383,6.171892485335184,-19.73920880211059,6.283185307179587
0.031,0.9810904571861389,0.1935507377348861,-1.2161029218807413,6.164373167825635,-19.739208802105992,6.283185307179587
0.032,0.9798549883257127,0.19971129036642485,-1.2548104110999474,6.15661049102942,-19.73920880210124,6.283185307179588
0.033,0.978580836363939,0.20586395871694493,-1.2934683609821243,6.1486047614312485,-19.739208802096343,6.283185307179587
0.034,0.9772680516037484,0.21200849988928733,-1.3320752453330704,6.1403562951119515,-19.73920880209129,6.283185307179587
0.035,0.9759166858732728,0.21814467130716883,-1.3706295399749784,6.131865417736,-19.739208802086093,6.283185307179586
0.036000000000000004,0.9745267925237985,0.22427223072475932,-1.4091297228066182,6.123132464538642,-19.739208802080757,6.283185307179586
0.037,0.9730984264276596,0.2303909362362461,-1.4475742738634392,6.114157780312663,-19.739208802075257,6.283185307179586
0.038,0.9716316439760716,0.23650054628538464,-1.4859616753775868,6.104941719394766,-19.739208802069623,6.283185307179587
0.039,0.9701265030769044,0.24260081967503563,-1.5242904118378338,6.095484645651579,-19.73920880206383,6.283185307179586
0.04,0.968583063152396,0.2486915155766878,-1.56255897004942,6.085786932465284,-19.739208802057885,6.283185307179587
0.041,0.9670013851368056,0.2547723935399662,-1.6007658391938036,6.075848962718868,-19.73920880205181,6.283185307179586
0.042,0.9653815314740083,0.2608432135021256,-1.6389095108883158,6.065671128781003,-19.739208802045578,6.283185307179586
0.043000000000000003,0.963723566115029,0.26690373579752824,-1.6769884792457208,6.055253832490549,-19.73920880203921,6.283185307179587
0.044,0.9620275545155169,0.27295372116710664,-1.7150012409336766,6.044597485140682,-19.73920880203269,6.283185307179586
0.045,0.9602935636331617,0.27899293076780957,-1.752946295234095,6.033702507462651,-19.739208802026013,6.283185307179587
0.046,0.9585216619250487,0.28502112618203196,-1.7908221441023984,6.022569329609161,-19.739208802019203,6.283185307179586
0.047,0.9567119193449568,0.2910380694270279,-1.8286272922266702,6.011198391137383,-19.739208802012246,6.283185307179586
0.048,0.9548644073405954,0.29704352296430675,-1.866360247086699,5.999590140991596,-19.73920880200514,6.283185307179586
0.049,0.9529791988507834,0.30303724970901114,-1.9040195190129101,5.9877450374854515,-19.739208801997894,6.283185307179586
0.05,0.9510563683025696,0.30901901303927765,-1.9416036212451868,5.975663548283878,-19.73920880199049,6.283185307179586
0.051000000000000004,0.949095991608293,0.3149885768055789,-1.9791110699915744,5.963346150384605,-19.739208801982958,6.283185307179586
0.052000000000000005,0.9470981461625864,0.3209457053400469,-2.016540384486869,5.950793330099329,-19.739208801975273,6.283185307179586
0.053,0.9450629108393193,0.3268901634657776,-2.0538900870510854,5.938005583034503,-19.739208801967457,6.283185307179585
0.054,0.9429903659884842,0.3328217165061159,-2.091158703147803,5.924983414071764,-19.73920880195947,6.283185307179585
0.055,0.9408805934330237,0.33874013029392114,-2.1283447614423894,5.911727337347991,-19.739208801951357,6.283185307179586
0.056,0.9387336764655995,0.3446451711808119,-2.165446793860094,5.898237876235004,-19.739208801943104,6.283185307179586
0.057,0.9365496998453036,0.35053660604639114,-2.202463335644016,5.884515563318886,-19.739208801934705,6.283185307179588
0.058,0.9343287497943115,0.3564142023074497,-2.239392925412941,5.870560940378956,-19.73920880192616,6.283185307179587
0.059000000000000004,0.9320709139944777,0.3622777279271491,-2.2762341052190416,5.856374558366367,-19.739208801917474,6.283185307179588
0.06,0.9297762815838734,0.36812695142418245,-2.312985420605445,5.841956977382348,-19.739208801908656,6.283185307179587
0.061,0.9274449431532668,0.3739616418819138,-2.3496454206636614,5.827308766656083,-19.739208801899693,6.283185307179586
0.062,0.925076990742546,0.3797815689574946,-2.386212658090874,5.8124305045222275,-19.739208801890584,6.283185307179586
0.063,0.922672517837085,0.3855865028909582,-2.4226856892470825,5.797322778398071,-19.73920880188134,6.283185307179586
0.064,0.9202316193640518,0.3913762145142907,-2.459063074212107,5.781986184760333,-19.739208801871957,6.283185307179586
0.065,0.9177543916886608,0.39715047526047886,-2.495343376842441,5.76642132912161,-19.739208801862436,6.283185307179586
0.066,0.915240932610367,0.40290905717253395,-2.531525164827956,5.750628826006458,-19.739208801852765,6.283185307179586
0.067,0.9126913413590049,0.4086517329124918,-2.5676070097484573,5.734609298927122,-19.73920880184296,6.283185307179585
0.068,0.9101057185908701,0.4143782757703882,-2.6035874871300826,5.7183633803589125,-19.739208801833012,6.283185307179586
0.069,0.9074841663847447,0.4200884596732096,-2.6394651765015453,5.701891711715224,-19.739208801822933,6.283185307179586
0.07,0.904826788237867,0.4257820591938187,-2.6752386614502224,5.685194943322208,-19.739208801812705,6.283185307179587
0.07100000000000001,0.9021336890618443,0.4314588495598541,-2.7109065296780783,5.668273734393081,-19.739208801802352,6.283185307179586
0.07200000000000001,0.8994049751785109,0.4371186066626049,-2.746467373057429,5.651128753002095,-19.739208801791854,6.283185307179586
0.073,0.8966407543157295,0.4427611070658583,-2.7819197876865402,5.633760676058153,-19.739208801781228,6.283185307179586
0.074,0.8938411356031378,0.4483861280147212,-2.817262373945058,5.616170189278071,-19.739208801770463,6.283185307179587
0.075,0.8910062295678394,0.45399344744441444,-2.8524937365492704,5.598357987159499,-19.73920880175956,6.283185307179586
0.076,0.8881361481300393,0.4595828439890402,-2.8876124846072004,5.580324772953492,-19.73920880174853,6.283185307179586
0.077,0.885231004598625,0.46515409699032145,-2.9226172316735206,5.5620712586367365,-19.73920880173735,6.283185307179587
0.078,0.8822909136666923,0.4707069865063137,-2.957506595804296,5.54359816488343,-19.73920880172605,6.283185307179586
0.079,0.8793159914070164,0.47624129332008835,-2.9922791996115485,5.52490622103682,-19.73920880171461,6.283185307179587
0.08,0.8763063552674691,0.48175679894838735,-3.0269336703176384,5.5059961650804,-19.739208801703032,6.283185307179586
0.081,0.8732621240663812,0.4872532856502491,-3.0614686398094677,5.486868743608762,-19.739208801691326,6.283185307179586
0.082,0.8701834179878503,0.4927305364356048,-3.0958827446924966,5.467524711798115,-19.73920880167949,6.283185307179586
0.083,0.8670703585769962,0.4981883350738453,-3.1301746263445747,5.447964833376453,-19.739208801667516,6.283185307179586
0.084,0.8639230687351611,0.5036264661023577,-3.1643429309695827,5.4281898805934,-19.73920880165542,6.283185307179585
0.085,0.860741672715057,0.5090447148350321,-3.1983863096508847,5.408200634189707,-19.73920880164318,6.283185307179586
0.08600000000000001,0.8575262961158593,0.5144428673707372,-3.2323034184045865,5.387997883366419,-19.73920880163081,6.283185307179585
0.08700000000000001,0.8542770658782478,0.519820710601765,-3.266092918232599,5.367582425753706,-19.739208801618318,6.283185307179585
0.088,0.8509941102793941,0.5251780322222447,-3.299753475175506,5.346955067379365,-19.7392088016057,6.283185307179586
0.089,0.8476775589278968,0.5305146207365238,-3.333283760365232,5.326116622636982,-19.739208801592937,6.283185307179585
0.09,0.8443275427586636,0.5358302654675187,-3.3666824500775077,5.305067914253775,-19.739208801580055,6.283185307179585
0.091,0.8409441940277418,0.5411247565650313,-3.399948225784135,5.283809773258097,-19.739208801567045,6.283185307179586
0.092,0.8375276463070954,0.5463978850140349,-3.4330797742050447,5.262343038946619,-19.739208801553904,6.283185307179586
0.093,0.8340780344793317,0.5516494426429246,-3.466075787360146,5.240668558851182,-19.739208801540645,6.283185307179586
0.094,0.8305954947323752,0.5568792221317372,-3.49893496262097,5.218787188705326,-19.739208801527248,6.283185307179586
0.095,0.8270801645540898,0.5620870170203353,-3.5316560027620976,5.196699792410497,-19.739208801513726,6.283185307179586
0.096,0.823532182726851,0.5672726217165582,-3.564237616012378,5.174407242001925,-19.739208801500077,6.283185307179588
0.097,0.8199516893220651,0.5724358315043391,-3.596678516105928,5.151910417614186,-19.73920880148631,6.283185307179587
0.098,0.8163388256946391,0.5775764425517865,-3.628977422332917,5.129210207446446,-19.73920880147242,6.283185307179586
0.099,0.8126937344773992,0.582694251919232,-3.6611330595901297,5.106307507727382,-19.739208801458396,6.283185307179586
0.1,0.8090165595754588,0.5877890575672413,-3.693144158431309,5.083203222679785,-19.739208801444263,6.283185307179586
0.101,0.8053074461605366,0.5928606583645916,-3.7250094551172763,5.059898264484855,-19.739208801429996,6.283185307179586
0.10200000000000001,0.8015665406652243,0.5979088540962111,-3.7567276916658225,5.036393553246171,-19.73920880141561,6.283185307179586
0.10300000000000001,0.7977939907772049,0.602933445471084,-3.7882976159013766,5.012690016953361,-19.739208801401105,6.283185307179586
0.10400000000000001,0.7939899454334215,0.6079342341301178,-3.819717981504441,4.988788591445445,-19.73920880138648,6.283185307179586
0.105,0.790154554814196,0.6129110226539749,-3.850987548060797,4.964690220373885,-19.73920880137172,6.283185307179587
0.106,0.7862879703372999,0.6178636145708657,-3.882105081110477,4.940395855165314,-19.739208801356853,6.283185307179587
0.107,0.7823903446519751,0.6227918143643055,-3.9130693521965014,4.91590645498396,-19.739208801341867,6.283185307179586
0.108,0.7784618316329069,0.6276954274808335,-3.943879138913378,4.891222986693773,-19.739208801326765,6.283185307179586
0.109,0.7745025863741484,0.632574260337693,-3.974533224955363,4.866346424820235,-19.739208801311534,6.283185307179586
0.11,0.7705127651829963,0.637428120330474,-4.005030400164479,4.841277751511879,-19.739208801296193,6.283185307179586
0.111,0.7664925255738194,0.6422568158407168,-4.035369460578295,4.816017956501501,-19.739208801280725,6.283185307179586
0.112,0.7624420262618397,0.647060156243477,-4.065549208477454,4.790568037067071,-19.73920880126515,6.283185307179586
0.113,0.7583614271568645,0.6518379519148509,-4.095568452432962,4.764928997992352,-19.73920880124946,6.283185307179586
0.114,0.7542508893569737,0.6565900142394617,-4.125426007353225,4.739101851527221,-19.73920880123365,6.283185307179587
0.115,0.7501105751421581,0.6613161556179054,-4.155120694530829,4.713087617347687,-19.739208801217735,6.283185307179586
0.116,0.745940647967912,0.6660161894741571,-4.184651341689086,4.686887322515632,-19.7392088012017,6.283185307179586
0.117,0.7417412724587799,0.6706899302629367,-4.214016783028299,4.660502001438242,-19.73920880118555,6.283185307179586
0.11800000000000001,0.7375126144018554,0.6753371934770336,-4.2432158592718014,4.633932695827162,-19.739208801169283,6.283185307179586
0.11900000000000001,0.7332548407402363,0.679957795654591,-4.272247417711714,4.607180454657358,-19.73920880115292,6.283185307179586
0.12,0.728968119566432,0.6845515543863483,-4.301110312254455,4.580246334125689,-19.739208801136435,6.283185307179586
0.121,0.7246526201157274,0.6891182883228424,-4.329803403465985,4.5531313976091985,-19.739208801119833,6.283185307179586
0.122,0.7203085127595,0.6936578171815667,-4.358325558616792,4.52583671562312,-19.739208801103132,6.283185307179586
0.123,0.7159359689984938,0.6981699617540886,-4.3866756517266055,4.498363365778602,-19.739208801086313,6.283185307179586
0.124,0.7115351614560468,0.7026545439131239,-4.414852563608853,4.470712432740155,-19.73920880106939,6.283185307179586
0.125,0.7071062638712761,0.7071113866195688,-4.442855181914836,4.442885008182809,-19.739208801052357,6.283185307179586
0.126,0.7026494510922171,0.7115403139294895,-4.470682401177649,4.414882190749011,-19.73920880103522,6.283185307179586
0.127,0.6981648990689208,0.7159411510010669,-4.4983331228558185,4.386705086005238,-19.739208801017973,6.283185307179586
0.128,0.6936527848465055,0.7203137241015,-4.525806255376667,4.358354806398332,-19.739208801000615,6.283185307179586
0.129,0.6891132865581674,0.7246578606138636,-4.553100714179409,4.329832471211577,-19.739208800983167,6.283185307179586
0.13,0.6845465834181467,0.7289733890439232,-4.580215421757965,4.301139206520491,-19.739208800965592,6.283185307179586
0.131,0.6799528557146515,0.7332601390269046,-4.607149307703499,4.272276145148362,-19.739208800947935,6.283185307179586
0.132,0.6753322848027397,0.7375179413342199,-4.63390130874667,4.24324442662151,-19.739208800930165,6.283185307179587
0.133,0.6706850530971581,0.7417466278801477,-4.6604703687996105,4.214045197124289,-19.739208800912298,6.283185307179587
0.134,0.6660113440651404,0.7459460317284685,-4.686855438997615,4.184679609453822,-19.739208800894325,6.283185307179586
0.135,0.6613113422191629,0.7501159870990554,-4.713055477740546,4.155148822974479,-19.73920880087625,6.283185307179587
0.136,0.6565852331096593,0.7542563293744176,-4.739069450733949,4.125454003572096,-19.739208800858066,6.283185307179587
0.137,0.651833203317695,0.7583668951061996,-4.7648963310298855,4.095596323607928,-19.73920880083979,6.283185307179587
0.138,0.6470554404475996,0.7624475220216335,-4.790535099067472,4.065576961872359,-19.739208800821427,6.283185307179587
0.139,0.6422521331195601,0.7664980490299443,-4.815984742713122,4.035397103538351,-19.73920880080295,6.283185307179587
0.14,0.6374234709621733,0.7705183162287101,-4.841244257300509,4.005057940114641,-19.73920880078439,6.283185307179587
0.14100000000000001,0.632569644604959,0.7745081649101736,-4.866312645670215,3.974560669398689,-19.739208800765724,6.283185307179586
0.14200000000000002,0.6276908456708329,0.7784674375675075,-4.891188918209102,3.9439064954293785,-19.73920880074696,6.283185307179586
0.14300000000000002,0.6227872667685408,0.7823959779010323,-4.915872092889373,3.9130966284394715,-19.7392088007281,6.283185307179586
0.14400000000000002,0.6178591014850541,0.7862936308243864,-4.940361195307334,3.8821322848078146,-19.739208800709157,6.283185307179585
0.145,0.6129065443779261,0.790160242470648,-4.964655258721863,3.8510146870113076,-19.739208800690104,6.283185307179586
0.146,0.6079297909676104,0.7939956601984091,-4.988753324092566,3.819745063576629,-19.73920880067097,6.283185307179586
0.147,0.6029290377297409,0.7977997325978012,-5.012654440117636,3.788324649031723,-19.73920880065174,6.283185307179586
0.148,0.597904482087375,0.8015723094964725,-5.036357663271405,3.7567546838570487,-19.739208800632415,6.283185307179586
0.149,0.5928563224031981,0.8053132419655153,-5.059862057841585,3.7250364144365964,-19.739208800613007,6.283185307179586
0.15,0.5877847579716918,0.8090223823253457,-5.083166695966207,3.6931710930086696,-19.739208800593495,6.283185307179586
0.151,0.5826899890112657,0.8126995841515328,-5.106270657670243,3.661159977616436,-19.7392088005739,6.283185307179586
0.152,0.5775722166563514,0.8163447022805786,-5.129173030901922,3.6290043320582486,-19.739208800554227,6.283185307179586
0.153,0.5724316429494618,0.8199575928156493,-5.151872911568728,3.5967054258377424,-19.73920880053446,6.283185307179587
0.154,0.5672684708332139,0.8235381131322541,-5.174369403573089,3.564264534113703,-19.7392088005146,6.283185307179587
0.155,0.5620829041423157,0.8270861218838766,-5.196661618847747,3.531682937649713,-19.739208800494666,6.283185307179587
0.156,0.5568751475955184,0.8306014790075535,-5.21874867739081,3.498961922763578,-19.739208800474636,6.283185307179587
0.157,0.551645406787534,0.8340840457294038,-5.240629707300487,3.466102781276532,-19.73920880045452,6.283185307179586
0.158,0.5463938881809175,0.8375336845701066,-5.262303844809504,3.433106810462227,-19.739208800434326,6.283185307179587
0.159,0.5411207990979151,0.8409502593503282,-5.283770234319198,3.3999753129955064,-19.73920880041405,6.283185307179586
0.16,0.5358263477122791,0.8443336351960976,-5.305028028433286,3.3667095969009657,-19.73920880039369,6.283185307179586
0.161,0.5305107430410485,0.8476836785441302,-5.326076387991312,3.3333109755013015,-19.739208800373245,6.283185307179586
0.162,0.5251741949362965,0.8510002571471003,-5.34691448210177,3.299780767365453,-19.739208800352724,6.283185307179587
0.163,0.5198169140768449,0.8542832400788611,-5.367541488174899,3.2661202962565348,-19.739208800332126,6.283185307179587
0.164,0.5144391119599466,0.8575324977396134,-5.387956591955148,3.2323308910795645,-19.739208800311438,6.283185307179587
